# Pulseq sequence file
# Created by PyPulseq

[VERSION]
major 1
minor 4
revision 0

[DEFINITIONS]
AdcRasterTime 1e-07 
BlockDurationRaster 1e-05 
GradientRasterTime 1e-05 
RadiofrequencyRasterTime 1e-06 
TotalDuration 0.14274 

# Format of blocks:
# NUM DUR RF  GX  GY  GZ  ADC  EXT
[BLOCKS]
 1 549   1   1   2   3  1  0
 2 549   2   4   5   6  2  0
 3 549   3   7   8   6  1  0
 4 549   2   9  10   6  2  0
 5 549   3  11  12   6  1  0
 6 549   2  13  14   6  2  0
 7 549   3  15  16   6  1  0
 8 549   2  17  18   6  2  0
 9 549   3  19  20   6  1  0
10 549   2  21  22   6  2  0
11 549   3  23  24   6  1  0
12 549   2  25  26   6  2  0
13 549   3  27  28   6  1  0
14 549   2  29  30   6  2  0
15 549   3  31  32   6  1  0
16 549   2  33  34   6  2  0
17 549   3  35  36   6  1  0
18 549   2  37  38   6  2  0
19 549   3  39  40   6  1  0
20 549   2  41  42   6  2  0
21 549   3  43  44   6  1  0
22 549   2  45  46   6  2  0
23 549   3  47  48   6  1  0
24 549   2  49  50   6  2  0
25 549   3  51  52   6  1  0
26 549   2  53  54   6  2  0

# Format of RF events:
# id amplitude mag_id phase_id time_shape_id delay freq phase
# ..        Hz   ....     ....          ....    us   Hz   rad
[RF]
1      255.016 4 5 0 100 0 -3.14159
2      255.016 4 5 0 100 0 0
3      255.016 4 5 0 100 0 -3.14159

# Format of arbitrary gradients:
#   time_shape_id of 0 means default timing (stepping with grad_raster starting at 1/2 of grad_raster)
# id amplitude amp_shape_id time_shape_id delay
# ..      Hz/m       ..         ..          us
[GRADIENTS]
1       851418 1 0 1740
2       845233 2 0 1740
3      -741508 3 0 0
4       851418 6 0 1740
5       851444 7 0 1740
6      -741508 3 0 0
7       848533 8 0 1740
8       851288 9 0 1740
9       840502 10 0 1740
10       851262 11 0 1740
11      -851340 12 0 1740
12       851184 13 0 1740
13      -851392 14 0 1740
14       850586 15 0 1740
15      -851418 16 0 1740
16       842426 17 0 1740
17      -851418 18 0 1740
18      -851340 19 0 1740
19      -851392 20 0 1740
20      -851392 21 0 1740
21      -844609 22 0 1740
22      -851210 23 0 1740
23       851444 24 0 1740
24      -851236 25 0 1740
25       851288 26 0 1740
26      -851236 27 0 1740
27       851418 28 0 1740
28      -846480 29 0 1740
29       851418 1 0 1740
30       845233 2 0 1740
31       851418 6 0 1740
32       851444 7 0 1740
33       848533 8 0 1740
34       851288 9 0 1740
35       840502 10 0 1740
36       851262 11 0 1740
37      -851340 12 0 1740
38       851184 13 0 1740
39      -851392 14 0 1740
40       850586 15 0 1740
41      -851418 16 0 1740
42       842426 17 0 1740
43      -851418 18 0 1740
44      -851340 19 0 1740
45      -851392 20 0 1740
46      -851392 21 0 1740
47      -844609 22 0 1740
48      -851210 23 0 1740
49       851444 24 0 1740
50      -851236 25 0 1740
51       851288 26 0 1740
52      -851236 27 0 1740
53       851418 28 0 1740
54      -846480 29 0 1740

# Format of ADC events:
# id num dwell delay freq phase
# ..  ..    ns    us   Hz   rad
[ADC]
1 2988 1000 1840 0 -3.14159
2 2988 1000 1840 0 0

# Sequence Shapes
[SHAPES]

shape_id 1
num_samples 375
0
0
8
0.015812
0.0608058
0.0564103
0.0167582
-0.0297924
-0.0532357
-0.0637057
-0.0687118
-0.0690171
-0.0650183
-0.0574787
-0.0472833
-0.0351648
-0.0220085
-0.0084555
0.0049146
0.0176129
0.0293346
0.0398351
0.0488095
0.0562882
0.0621184
0.0663004
0.0688034
0.0698108
0.0692918
0.0673993
0.0641941
0.0598291
0.0544871
0.0482296
0.0413003
0.0337607
0.0257937
0.0175214
0.0091269
0.0006411
-0.0076923
-0.0158425
-0.0236875
-0.031105
-0.0380647
-0.0444444
-0.0502137
-0.0552503
-0.0596459
-0.0632784
-0.0660867
-0.0681624
-0.0693834
-0.0699023
-0.0696276
-0.0686203
-0.0664835
-0.0632784
-0.0597375
-0.0557387
-0.051221
-0.046398
-0.0411477
-0.0356838
-0.0299756
-0.0241453
-0.0181319
-0.0121184
-0.006105
-0.0001221
0.0057692
0.0115385
0.017094
0.0224664
0.0275947
0.032387
0.0369353
0.0411477
0.0449634
0.0484432
0.0515263
0.054243
0.0564713
0.0583944
0.059829
0.0608669
0.061508
0.0616911
0.0615689
0.060989
0.0600733
0.0587607
0.0571123
0.0551588
0.0528693
0.0502747
0.0474359
0.0443529
0.0409951
0.0374848
0.0337912
0.029945
0.0259158
0.0218254
0.0176434
0.0134005
0.0091575
0.004823
0.00058
-0.0036936
-0.0078754
-0.0119964
-0.0160256
-0.0199328
-0.0236875
-0.0273504
-0.0307998
-0.0341269
-0.0371795
-0.0401099
-0.0427961
-0.0452686
-0.047497
-0.0494811
-0.0512515
-0.0527472
-0.0539988
-0.0549756
-0.0557387
-0.0562271
-0.0564103
-0.0564407
-0.0561966
-0.0556472
-0.0549145
-0.0539377
-0.0527473
-0.0513125
-0.0496643
-0.0478632
-0.0458486
-0.0436203
-0.0413003
-0.0387668
-0.0361111
-0.0333029
-0.0304029
-0.0273809
-0.0242674
-0.0210928
-0.0178572
-0.0145299
-0.0112027
-0.0078144
-0.0044566
-0.0010684
0.0022894
0.0056471
0.0089438
0.0121795
0.0153846
0.0185287
0.0215202
0.024481
0.02732
0.0300366
0.0326312
0.0351343
0.0374543
0.039652
0.0416972
0.0435897
0.0452992
0.0468864
0.0482601
0.0494811
0.0505189
0.0514041
0.0521063
0.0525946
0.0529304
0.0530525
0.0530525
0
0.0528693
0.0525031
0.0519536
0.051221
0.0503663
0.0493284
0.048138
0.0467949
0.0452991
0.0436814
0.0419414
0.0400488
0.0380647
0.035928
0.0337301
0.0314103
0.0290293
0.0265568
0.0239621
0.0213981
0.0186813
0.0159951
0.0132479
0.0104395
0.0076313
0.0048229
0.0020147
-0.0008242
-0.0036325
-0.0064102
-0.0091575
-0.0119048
-0.0145604
-0.0171856
-0.0197497
-0.0222833
-0.0246948
-0.0270451
-0.0293041
-0.0315018
-0.033547
-0.0355617
-0.0374236
-0.0391942
-0.0408425
-0.0423687
-0.0437729
-0.0450855
-0.0462149
-0.0472527
-0.048138
-0.0489316
-0.0495421
-0.0500306
-0.0503968
-0.0506105
-0.0507021
-0.050641
-0.0504884
-0.0501832
-0.0497252
-0.0491453
-0.0484738
-0.047619
-0.0467033
-0.0456044
-0.044475
-0.0431624
-0.0417887
-0.0402626
-0.0387057
-0.0368437
-0.0345543
-0.0325397
-0.0305251
-0.0284493
-0.0263126
-0.0241453
-0.0219169
-0.0196582
-0.0173687
-0.0150488
-0.012729
-0.0103785
-0.0079975
-0.0056777
-0.0032967
-0.0009768
0.0013736
0.003663
0.0059829
0.0082113
0.0104395
0.0126069
0.0147741
0.0168498
0.018895
0.0208791
0.0228022
0.0246642
0.0264652
0.0281746
0.029823
0.0314103
0.0329059
0.0343102
0.0356532
0.0369048
0.0380342
0.039133
0.0401405
0.0409951
0.0418193
0.0425213
0.0431319
0.0436813
0.0440782
0.0444444
0.0446887
0.011691
0.0234433
0.0234432
0.0234432
1
0.0234127
0.0234433
0.0234432
0.0234432
1
0.0234127
0.0234432
0.0234433
0.0234432
0.0234432
1
0.0234433
0.0234432
0.0234432
0
0.0234127
0.0234432
0.0234433
0.0234432
0.0234432
1
0.0234433
0.0234432
0.0234432
0
0.0234127
0.0234432
0.0234432
0
0.0234433
0.0234432
0.0234432
0
0.0103785
-0.0059829
-0.0060134
-0.006044
-0.0060134
-0.0060134
0
-0.006044
-0.0060134
-0.0060134
0
-0.0130342
-0.0340354
-0.0355007
-0.0355006
-0.0354701
-0.0355006
-0.0314713
-0.0236263
-0.0234433
-0.0234432
-0.0234432
1
-0.0234433
-0.0234432
-0.0234432
1
-0.0234127
-0.0234433
-0.0234432
-0.0234432
2
-0.0234433

shape_id 2
num_samples 375
0
0
8
0.0003075
0.0082406
0.0355759
0.062696
0.0605744
0.0444929
0.0277044
0.0098702
-0.0080253
-0.0247525
-0.0394195
-0.0514421
-0.0605436
-0.0665396
-0.0696759
-0.0700449
-0.067954
-0.0637415
-0.0577147
-0.0502122
-0.0415719
-0.0320706
-0.0220773
-0.0117459
-0.0014144
0.0087325
0.0185413
0.0277351
0.0363139
0.0440317
0.0509194
0.0567615
0.0616199
0.0654326
0.0681385
0.0697681
0.0704139
0.0699527
0.0685997
0.0662321
0.063065
0.0590369
0.0543632
0.049013
0.0431093
0.0367443
0.0299798
0.022969
0.0157432
0.0083636
0.0009839
-0.0063341
-0.0135908
-0.0213087
-0.0288113
-0.0349609
-0.0404957
-0.0455691
-0.0501199
-0.0541173
-0.057561
-0.0604206
-0.0626961
-0.0643871
-0.0655249
-0.0661091
-0.0660784
-0.0655863
-0.064541
-0.0630342
-0.0610356
-0.0586065
-0.0557776
-0.0525491
-0.0490129
-0.0451695
-0.0410184
-0.0366828
-0.0321014
-0.0273661
-0.0225078
-0.0175573
-0.0125761
-0.0075027
-0.0025213
0.0024906
0.0074104
0.0122071
0.0169116
0.0214317
0.0257671
0.029949
0.0338847
0.0376054
0.0410183
0.0441855
0.0471066
0.0496894
0.0519956
0.0539635
0.0556239
0.0570075
0.0580223
0.0587295
0.0590984
0.0591907
0.0589447
0.0584528
0.0575918
0.0564848
0.0550704
0.05341
0.0515036
0.0493512
0.0469836
0.04437
0.0416026
0.03862
0.0355144
0.0322243
0.0288421
0.0253367
0.0217083
0.0180494
0.0143287
0.0105467
0.0067339
0.0029211
-0.0008302
-0.0046122
-0.0083329
-0.0119918
-0.0155587
-0.0190641
-0.0224463
-0.0257364
-0.0288728
-0.0318861
-0.0347765
-0.0374208
-0.0400037
-0.0423405
-0.044493
-0.0464916
-0.0482443
-0.0498432
-0.0512268
-0.0523646
-0.0533485
-0.0540557
-0.0546092
-0.0549166
-0.055009
-0.0549166
-0.0546092
-0.0541172
-0.0533793
-0.0524568
-0.0513806
-0.0500892
-0.048644
-0.0470143
-0.0452002
-0.043263
-0.0412029
-0.0389275
-0.0366213
-0.0341
-0.0315479
-0.0288727
-0.0260747
-0.0232458
-0.0203247
-0.0173729
-0.0143287
-0.0112847
-0.0082406
-0.0051042
-0.0020294
0.0010762
0.0041203
0.0071951
0.0101777
0.0131604
0.0160506
0.0189103
0.0216776
0.0243835
0.0269664
0.0294877
0.0318554
0.0341922
0.0363447
0.0384047
0.0403419
0.0421254
0.0437857
0.0452924
0.0466761
0.0479061
0.0489822
0.0498739
0.0506734
0.0512576
0.0517189
0.052057
0.0521186
0.0521801
0.0519955
0.0516881
0.0512269
0.0506119
0.0498739
0.0489515
0.0479368
0.0467376
0.0454461
0.0440318
0.0424943
0.0408339
0.0390505
0.0371748
0.0352069
0.0331776
0.0309944
0.0287805
0.0264744
0.0241067
0.0217084
0.0192178
0.0167271
0.0141443
0.0115614
0.0089478
0.0063342
0.0036898
0.0010762
-0.0015682
-0.0042125
-0.0067647
-0.0093783
-0.0118996
-0.0143903
-0.0168808
-0.0192485
-0.0216162
-0.0239223
-0.0261361
-0.0282578
-0.0303487
-0.0323473
-0.0343768
-0.0365598
-0.0382818
-0.0397577
-0.0411106
-0.0424021
-0.0435705
-0.0445852
-0.0455077
-0.0463071
-0.0470143
-0.0475986
-0.048029
-0.0483672
-0.0485825
-0.0486748
-0.048644
-0.0485517
-0.0483365
-0.0479676
-0.0475063
-0.0469836
-0.0462763
-0.0455384
-0.0446775
-0.0437242
-0.0426788
-0.0415411
-0.040342
-0.0390197
-0.0376668
-0.0361909
-0.0346842
-0.0331161
-0.0314556
-0.0297645
-0.0280118
-0.0261976
-0.0243835
-0.0224771
-0.0205399
-0.0186336
-0.0166041
-0.0146363
-0.0126068
-0.0106082
-0.0085481
-0.0064879
0.0178648
0.0357604
0.0357297
0.0357604
0.0357604
0
0.0357297
0.0357604
0.0357296
0.0357605
0.0357296
0.0357604
0.0357604
0
0.0357297
0.0357604
0.0357297
0.0357604
0.0357296
0.0357604
0.0357604
0
0.0357297
0.0357604
0.0357297
0.0357604
0.0357604
0
0.0357296
0.0357605
0.0357296
0.0357604
0.0356989
0.0357604
0.0357605
0.0357296
0.0357604
0.0357297
0.0330545
0.029703
0.0296722
0.0296722
0
0.029703
0.0296722
0.0296723
0.0296722
0.0297029
0.0282271
0.0238915
0.0236148
0.0236148
1
0.0236147
0.0038436
-0.0347457
-0.0357297
-0.0357604
-0.0357296
-0.0357604
-0.0357605
-0.0357296
-0.0357604
-0.0357297
-0.0357604
-0.0357604
0
-0.0357297
-0.0357604
-0.0357296
-0.0357604
-0.0357297

shape_id 3
num_samples 192
0
0
8
0.0243945
0.0488241
0.0488591
0.0488241
0.0488241
0
0.0488591
0.0488241
0.0488241
1
0.0488591
0.0488241
0.0488241
0
0.0488591
0.0488241
0.0488241
1
0.0488591
0.0488241
0.0488241
0
0.0488592
0.0477375
-0.0134941
-0.0488591
-0.0488241
-0.0488241
0
-0.0488591
-0.0488241
-0.0488241
1
-0.0488591
-0.0488241
-0.0488241
0
-0.0488591
-0.0488241
-0.0488241
1
-0.0488591
-0.0488241
-0.0488241
0
-0.0488591
-0.0488241
-0.0488241
0
-0.048789
-0.0488592
-0.0488241
-0.0488241
0
-0.048824
-0.0488592
-0.0488241
-0.0488241
0
-0.0488591
-0.0259016
0
0
71
0.0229224
0.048789
0.0488592
0.0488241
0.048824
0.0488241
0.0488592
0.048824
0.0488241
0.0488241
3
0.0488591
0.0488241
0.0488241
0
0.0488591
0.0488241
0.0488241
1
0.0488591
0.0488241
0.0488241
0
0.0488591
0.0488241
0.0488241
1
0.0488591
0.0488241
0.0072202
-0.0485437
-0.0488591
-0.0488241
-0.0488241
0
-0.0488591
-0.0488241
-0.0488241
1
-0.0488591
-0.0488241
-0.0488241
0
-0.0488591
-0.0488241
-0.0488241
1
-0.0488591
-0.0488241
-0.0488241
0
-0.0478076
-0.0153167
0
0
5

shape_id 4
num_samples 1259
0
0
508
0.0402219
0.0182287
9.9e-05
0.0001982
0.0001981
0.0001981
0
0.0002973
0.0001981
0.0002972
0.0003963
0.0002972
0.0003963
0.0003962
0.0003963
0.0004953
0.0003963
0.0004954
0.0005944
0.0004953
0.0005944
0.0005944
0
0.0005945
0.0006934
0.0006935
0.0006935
1
0.0007925
0.0007926
0.0007925
0.0008917
0.0008916
0.0008916
2
0.0009907
0.0009907
0
0.0010898
0.0009906
0.0010898
0.0011888
0.0010898
0.0011888
0.0011888
0
0.0011889
0.0012879
0.0012878
0.0012879
0.0012879
0
0.001387
0.001387
0
0.0013869
0.0014861
0.001486
0.001486
1
0.0015851
0.0015851
2
0.0016842
0.0016842
1
0.0017832
0.0017832
0
0.0017833
0.0017832
0.0018823
0.0018823
1
0.0019814
0.0019814
0
0.0019813
0.0019814
0.0020805
0.0020804
0.0020805
0.0020804
0.0021795
0.0021795
2
0.0022786
0.0022786
0
0.0023777
0.0022785
0.0023777
0.0023776
0.0023777
0.0024767
0.0024767
0
0.0024768
0.0024767
0.0025758
0.0025757
0.0025758
0.0025758
0
0.0026749
0.0026748
0.0026749
0.0026748
0.002774
0.0026748
0.002873
0.0027739
0.002774
0.002873
0.002873
0
0.002972
0.002873
0.0029721
0.002972
0.0029721
0.0029721
0
0.0030711
0.0030711
0
0.0030712
0.0030711
0.0031702
0.0030711
0.0031702
0.0032693
0.0031702
0.0032693
0.0031702
0.0032692
0.0032693
0.0033683
0.0032693
0.0033683
0.0033684
0.0033683
0.0034674
0.0033684
0.0034674
0.0034674
2
0.0035665
0.0034674
0.0035664
0.0035665
0.0035665
1
0.0036655
0.0035665
0.0036655
0.0036656
0.0036655
0.0036656
0.0037646
0.0036655
0.0037646
0.0036656
0.0037646
0.0037646
1
0.0038637
0.0037646
0.0038637
0.0037646
0.0038637
0.0038637
0
0.0038636
0.0038637
0.0038637
0
0.0039628
0.0038636
0.0039628
0.0038637
0.0039627
0.0039628
0.0038637
0.0039627
0.0039628
0.0040618
0.0039627
0.0039628
0.0039627
0.0040618
0.0039628
0.0040618
0.0039628
0.0040618
0.0039627
0.0040618
0.0040619
0.0040618
0.0039627
0.0040619
0.0040618
0.0040618
2
0.0040619
0.0040618
0.0040618
3
0.0040619
0.0040618
0.0040618
2
0.0040619
0.0039627
0.0040618
0.0040618
0
0.0040619
0.0040618
0.0040618
0
0.0039628
0.0040618
0.0040618
0
0.0039627
0.0040619
0.0039627
0.0040618
0.0039628
0.0039627
0.0039628
0.0040618
0.0039627
0.0039628
0.0038637
0.0039627
0.0039628
0.0039627
0.0038637
0.0039628
0.0038636
0.0038637
0.0038637
3
0.0038636
0.0037646
0.0037647
0.0038636
0.0037647
0.0037646
0.0037646
0
0.0036655
0.0037646
0.0036656
0.0037646
0.0036655
0.0036656
0.0035665
0.0036655
0.0035665
0.0036655
0.0035665
0.0035665
0
0.0034674
0.0035664
0.0034675
0.0034674
0.0034674
2
0.0033683
0.0033684
0.0033683
0.0033683
0
0.0033684
0.0032692
0.0032693
0.0032693
0
0.0032692
0.0031702
0.0031702
3
0.0030712
0.0030711
0.0030711
0
0.0029721
0.0029721
0
0.002972
0.0029721
0.0029721
0
0.0028729
0.002873
0.002873
0
0.002774
0.0027739
0.0027739
1
0.0026749
0.0026748
0.0026749
0.0026749
0
0.0025757
0.0025758
0.0024768
0.0025757
0.0024768
0.0023776
0.0024767
0.0023777
0.0023776
0.0022786
0.0023777
0.0021795
0.0022786
0.0021795
0.0021795
1
0.0020804
0.0020805
0.0020804
0.0019814
0.0019814
0
0.0019813
0.0018824
0.0018823
0.0018823
0
0.0017832
0.0017832
0
0.0017833
0.0016841
0.0016842
0.0016842
0
0.0015851
0.0015851
1
0.001486
0.001486
0
0.001387
0.001486
0.0012879
0.001387
0.0012879
0.0012879
0
0.0011888
0.0011888
0
0.0011889
0.0010897
0.0010898
0.0010897
0.0009907
0.0009907
0
0.0008916
0.0008916
0
0.0008917
0.0008916
0.0007925
0.0006935
0.0006935
2
0.0005944
0.0005944
0
0.0004953
0.0004954
0.0004953
0.0003963
0.0003963
0
0.0003962
0.0002972
0.0001982
0.0002972
0.0001981
0.0001982
9.9e-05
9.91e-05
0
0
1
-9.91e-05
-9.9e-05
-9.91e-05
-0.0001981
-0.0001982
-0.0002972
-0.0001981
-0.0003963
-0.0002972
-0.0003963
-0.0004953
-0.0004954
-0.0004953
-0.0004954
-0.0005944
-0.0006935
-0.0005944
-0.0006934
-0.0007926
-0.0006935
-0.0008916
-0.0007925
-0.0008917
-0.0008916
-0.0009907
-0.0009907
0
-0.0009906
-0.0010898
-0.0010898
0
-0.0011888
-0.0010897
-0.0012879
-0.0011889
-0.0012879
-0.0012878
-0.001387
-0.001387
0
-0.0013869
-0.0014861
-0.001486
-0.001486
0
-0.0015851
-0.0015851
1
-0.0016842
-0.0016842
0
-0.0017832
-0.0017832
0
-0.0017833
-0.0017832
-0.0018823
-0.0018823
0
-0.0019814
-0.0018823
-0.0020805
-0.0019813
-0.0020805
-0.0020804
-0.0020805
-0.0021795
-0.0021795
0
-0.0022786
-0.0021795
-0.0022786
-0.0023776
-0.0022786
-0.0023776
-0.0023777
-0.0024767
-0.0024767
1
-0.0024768
-0.0025758
-0.0025757
-0.0026749
-0.0025758
-0.0026748
-0.0026749
-0.0027739
-0.0026749
-0.0027739
-0.002873
-0.0027739
-0.002873
-0.002873
1
-0.0029721
-0.002972
-0.0029721
-0.0029721
0
-0.0030711
-0.0030711
1
-0.0030712
-0.0031702
-0.0031702
2
-0.0032693
-0.0031702
-0.0032692
-0.0033684
-0.0032692
-0.0033684
-0.0033683
-0.0033683
0
-0.0033684
-0.0033683
-0.0034674
-0.0034674
2
-0.0035665
-0.0034674
-0.0035665
-0.0035665
0
-0.0035664
-0.0035665
-0.0036656
-0.0036655
-0.0035665
-0.0036655
-0.0037646
-0.0036656
-0.0036655
-0.0037646
-0.0037647
-0.0037646
-0.0037646
2
-0.0038637
-0.0037646
-0.0038637
-0.0038637
0
-0.0038636
-0.0038637
-0.0038637
2
-0.0039627
-0.0038637
-0.0039628
-0.0039627
-0.0039628
-0.0039627
-0.0039628
-0.0039627
-0.0039628
-0.0039627
-0.0039628
-0.0040618
-0.0039627
-0.0040618
-0.0039628
-0.0040618
-0.0039628
-0.0040618
-0.0040618
1
-0.0039628
-0.0040618
-0.0040618
2
-0.0040619
-0.0040618
-0.0040618
2
-0.0040619
-0.0040618
-0.0040618
3
-0.0040619
-0.0040618
-0.0040618
0
-0.0039628
-0.0040618
-0.0040618
2
-0.0039628
-0.0040618
-0.0040618
0
-0.0039628
-0.0040618
-0.0039627
-0.0040619
-0.0039627
-0.0039628
-0.0040618
-0.0039627
-0.0039628
-0.0039627
-0.0039628
-0.0039627
-0.0038637
-0.0039628
-0.0038636
-0.0039628
-0.0038637
-0.0039627
-0.0038637
-0.0038637
1
-0.0038636
-0.0037647
-0.0038636
-0.0037647
-0.0038636
-0.0037646
-0.0037647
-0.0037646
-0.0037646
1
-0.0036655
-0.0037647
-0.0036655
-0.0036655
0
-0.0036656
-0.0036655
-0.0036656
-0.0035664
-0.0036656
-0.0035665
-0.0035664
-0.0035665
-0.0034674
-0.0035665
-0.0034674
-0.0034674
3
-0.0033684
-0.0034674
-0.0033683
-0.0033684
-0.0032692
-0.0033684
-0.0032692
-0.0032693
-0.0032693
0
-0.0032692
-0.0031702
-0.0032693
-0.0031702
-0.0031702
0
-0.0030711
-0.0031702
-0.0030712
-0.0030711
-0.0030711
0
-0.0029721
-0.0030711
-0.0029721
-0.002972
-0.002873
-0.0029721
-0.002873
-0.002873
0
-0.0027739
-0.002873
-0.0027739
-0.002774
-0.0027739
-0.0026748
-0.002774
-0.0026748
-0.0025758
-0.0026749
-0.0025758
-0.0025757
-0.0025758
-0.0025758
0
-0.0024767
-0.0024768
-0.0024767
-0.0023776
-0.0023777
-0.0023776
-0.0023777
-0.0022786
-0.0023776
-0.0021795
-0.0022786
-0.0021795
-0.0022786
-0.0020804
-0.0021796
-0.0020804
-0.0020804
0
-0.0020805
-0.0020804
-0.0019814
-0.0019814
1
-0.0018823
-0.0018823
2
-0.0017832
-0.0017833
-0.0017832
-0.0016842
-0.0016841
-0.0016842
-0.0016842
0
-0.0015851
-0.0015851
2
-0.001486
-0.001486
0
-0.0014861
-0.0013869
-0.001387
-0.0013869
-0.001387
-0.0012879
-0.0012879
1
-0.0011888
-0.0012879
-0.0011888
-0.0010898
-0.0011888
-0.0010898
-0.0010897
-0.0009907
-0.0009907
3
-0.0008916
-0.0008916
0
-0.0007926
-0.0008916
-0.0007925
-0.0007926
-0.0006935
-0.0007925
-0.0006935
-0.0005944
-0.0006935
-0.0005944
-0.0005944
1
-0.0004954
-0.0005944
-0.0003962
-0.0004954
-0.0004953
-0.0003963
-0.0003963
0
-0.0002972
-0.0003963
-0.0002972
-0.0002972
0
-0.0001981
-0.0002972
-0.0001982
-0.0001981
-9.91e-05
-0.0001981
-0.040321
-0.0180305
0
0
5

shape_id 5
num_samples 1259
0
0
1257

shape_id 6
num_samples 375
0
0
0
0
0
0
0
0
0
0
0.0138583639
0.0638888889
0.0974358974
0.0833333333
0.028998779
-0.0386141636
-0.107814408
-0.173229548
-0.230647131
-0.276800977
-0.30952381
-0.327625153
-0.330830281
-0.31959707
-0.29496337
-0.258302808
-0.211355311
-0.155952381
-0.0940781441
-0.0276862027
0.0413003663
0.111111111
0.17997558
0.246367521
0.308821734
0.366147741
0.417277167
0.461324786
0.497557998
0.525457875
0.54471917
0.55509768
0.556532357
0.549206349
0.533272283
0.509157509
0.477258852
0.438156288
0.392490842
0.340964591
0.284310134
0.223351648
0.158943834
0.0918803419
0.023046398
-0.0467032967
-0.116544567
-0.185653236
-0.253266178
-0.318589744
-0.380952381
-0.43968254
-0.494169719
-0.543192918
-0.585927961
-0.622710623
-0.653357753
-0.677716728
-0.695665446
-0.707142857
-0.712179487
-0.710866911
-0.703296703
-0.689652015
-0.67014652
-0.645054945
-0.614652015
-0.579273504
-0.539316239
-0.49508547
-0.447039072
-0.395573871
-0.341147741
-0.284188034
-0.225152625
-0.164499389
-0.102686203
-0.0401404151
0.0226495726
0.0852869353
0.147374847
0.208455433
0.268131868
0.326068376
0.381898657
0.43525641
0.485836386
0.533394383
0.577625153
0.618345543
0.655250305
0.688247863
0.717155067
0.741819292
0.762148962
0.778083028
0.789529915
0.796520147
0.799053724
0.797100122
0.790750916
0.78009768
0.765201465
0.746184371
0.723199023
0.696398046
0.665934066
0.631990232
0.594810745
0.55454823
0.511507937
0.465873016
0.417887668
0.367857143
0.315964591
0.262545788
0.207844933
0.152136752
0.0956959707
0.0387667888
-0.0183455433
-0.0753968254
-0.132112332
-0.188247863
-0.243559219
-0.297771673
-0.350641026
-0.402014652
-0.451587302
-0.499206349
-0.54465812
-0.587728938
-0.628327228
-0.666208791
-0.701282051
-0.733424908
-0.762454212
-0.788339438
-0.810958486
-0.83021978
-0.846092796
-0.858547009
-0.867490842
-0.872985348
-0.874969475
-0.873473748
-0.868528694
-0.860164835
-0.848412698
-0.833394383
-0.81510989
-0.793711844
-0.769291819
-0.741910867
-0.711721612
-0.678846154
-0.643406593
-0.605586081
-0.565506716
-0.523321123
-0.479212454
-0.433333333
-0.385866911
-0.336996337
-0.286904762
-0.235775336
-0.183791209
-0.131135531
-0.077991453
-0.0245421245
0.028968254
0.0824175824
0.135622711
0.188369963
0.240506716
0.291819292
0.342185592
0.391422466
0.439377289
0.485866911
0.530769231
0.573931624
0.61523199
0.654517705
0.691697192
0.726648352
0.759279609
0.789468864
0.817155067
0.842216117
0.864652015
0.884340659
0.901282051
0.915384615
0.926648352
0.93501221
0.940506716
0.943101343
0.942826618
0.939652015
0.933638584
0.9247558
0.913095238
0.898717949
0.881593407
0.861874237
0.83956044
0.814774115
0.787576313
0.758058608
0.726312576
0.692429792
0.656532357
0.618711844
0.579120879
0.537820513
0.494993895
0.450732601
0.405189255
0.358455433
0.310714286
0.262087912
0.212698413
0.162698413
0.112240537
0.0614468864
0.0104700855
-0.0405372405
-0.0914835165
-0.142185592
-0.192521368
-0.242368742
-0.291575092
-0.340018315
-0.387545788
-0.434096459
-0.479487179
-0.523626374
-0.566391941
-0.607661783
-0.647374847
-0.685409035
-0.721672772
-0.756074481
-0.788522589
-0.818956044
-0.847283272
-0.873473748
-0.897405372
-0.919078144
-0.938400488
-0.955189255
-0.968925519
-0.980067155
-0.988766789
-0.99496337
-0.998717949
-1
-0.998840049
-0.995238095
-0.989255189
-0.980891331
-0.97020757
-0.957234432
-0.942032967
-0.9246337
-0.90509768
-0.883485958
-0.859859585
-0.834340659
-0.806929182
-0.777716728
-0.746794872
-0.714255189
-0.680189255
-0.64465812
-0.607753358
-0.569566545
-0.53021978
-0.489774115
-0.448351648
-0.406013431
-0.362912088
-0.319108669
-0.27469475
-0.22979243
-0.184493284
-0.138888889
-0.0931013431
-0.0472222222
-0.00131257631
0.0444444444
0.09004884
0.13537851
0.180311355
0.22481685
0.268742369
0.312026862
0.354578755
0.356715507
0.360958486
0.36523199
0.369505495
0.373748474
0.378021978
0.382295482
0.386538462
0.390811966
0.39508547
0.399328449
0.403601954
0.407875458
0.412118437
0.416391941
0.420665446
0.424908425
0.429181929
0.433455433
0.437698413
0.441971917
0.446245421
0.4504884
0.454761905
0.459035409
0.463278388
0.467551893
0.471825397
0.476068376
0.48034188
0.484615385
0.488858364
0.493131868
0.497405372
0.491330891
0.472344322
0.453296703
0.434279609
0.415262515
0.396245421
0.377197802
0.358180708
0.339163614
0.314590965
0.273412698
0.231105006
0.188797314
0.146459096
0.104151404
0.0745115995
0.0695970696
0.0653235653
0.0610805861
0.0568070818
0.0525335775
0.0482905983
0.044017094
0.0397435897
0.0355006105
0.0312271062
0.026984127
0.0227106227
0.0184371184
0.0141941392
0.00992063492
0.00564713065

shape_id 7
num_samples 375
0
0
8
0.007631
0.035469
0.057538
0.0628796
0.0394066
0.0143463
-0.0052501
-0.0232594
-0.0391319
-0.051952
-0.0613839
-0.0671531
-0.0695644
-0.0687403
-0.0651689
-0.0593083
-0.0515247
-0.042398
-0.0322334
-0.0214279
-0.0103782
0.000641
0.011416
0.0216721
0.0311956
0.039895
0.0475871
0.0542108
0.0597356
0.0640396
0.067153
0.0690761
0.0698391
0.0695034
0.0680382
0.0655963
0.0621776
0.0579347
0.0528983
0.0472207
0.0409634
0.034248
0.0271054
0.0197491
0.0122097
0.0045786
-0.0030219
-0.0105308
-0.0178566
-0.0249077
-0.031623
-0.0379414
-0.0438021
-0.0496322
-0.0547297
-0.0584842
-0.061506
-0.0638564
-0.0656268
-0.0666952
-0.0671225
-0.0670614
-0.0662984
-0.0650468
-0.063246
-0.0609261
-0.0581484
-0.0549739
-0.051372
-0.047465
-0.0432221
-0.0386741
-0.0339733
-0.0290284
-0.023992
-0.0187723
-0.0135527
-0.0083025
-0.0030219
0.0021977
0.0073563
0.0123623
0.0172461
0.0219774
0.0264643
0.0307989
0.0348585
0.0386435
0.0421538
0.0453893
0.0482891
0.0509142
0.0531425
0.0550655
0.0566832
0.0579042
0.05882
0.0593693
0.0595831
0.0594914
0.0590337
0.058301
0.0572327
0.0558591
0.0542108
0.0523183
0.0501205
0.0476787
0.0450536
0.0422148
0.0391624
0.0359269
0.0325692
0.0290589
0.0254571
0.0217027
0.0179176
0.0140716
0.0101951
0.0062574
0.0023504
-0.0015568
-0.0054027
-0.0092488
-0.0129728
-0.0166356
-0.020207
-0.0236256
-0.0269833
-0.0301578
-0.0331797
-0.036049
-0.0387656
-0.0412686
-0.0435579
-0.0457251
-0.0476176
-0.0493269
-0.0508226
-0.0521047
-0.0531729
-0.0539972
-0.0545771
-0.0550044
-0.055096
-0.055096
0
-0.0548213
-0.0543329
-0.0536613
-0.0527151
-0.0516468
-0.0503343
-0.048869
-0.0472208
-0.0453588
-0.0434053
-0.0412686
-0.0389793
-0.0365373
-0.0340344
-0.0313788
-0.0286316
-0.0257623
-0.0228625
-0.0198712
-0.0168493
-0.0137359
-0.0106224
-0.0074784
-0.0043039
-0.0011599
0.0020146
0.0051281
0.0082109
0.011294
0.0142852
0.0172156
0.0200849
0.0228931
0.0256097
0.0282042
0.0306768
0.0331186
0.0353774
0.0375142
0.0395287
0.0414212
0.043161
0.0447789
0.0462135
0.047526
0.0486554
0.0496322
0.0504563
0.0511279
0.0516163
0.0519825
0.0521657
0.0521351
0.0520436
0.0517384
0.0512805
0.05067
0.0499069
0.0490217
0.0479838
0.0467935
0.0454809
0.0440158
0.042459
0.0407802
0.0389487
0.0370563
0.0350416
0.0329661
0.0307377
0.028479
0.0261286
0.0237173
0.0212447
0.0187418
0.0161778
0.0135527
0.0109276
0.0082721
0.0056164
0.0029303
0.0002442
-0.0024114
-0.005067
-0.0076921
-0.0102866
-0.0128506
-0.0153842
-0.0178566
-0.020268
-0.0226489
-0.0249076
-0.0271359
-0.0293032
-0.0313177
-0.0333018
-0.0351943
-0.0369647
-0.038613
-0.0402307
-0.0416654
-0.043039
-0.0442599
-0.0453894
-0.0463966
-0.0473429
-0.0482281
-0.0487469
-0.0491133
-0.049388
-0.0494796
-0.0495101
-0.0493574
-0.0491438
-0.0487775
-0.0483197
-0.0477397
-0.0470376
-0.046244
-0.0453283
-0.044321
-0.0432526
-0.0420317
-0.0407802
-0.0393761
-0.037972
-0.0364152
-0.034828
-0.0331797
-0.0314399
-0.0296389
-0.0278074
-0.025915
-0.0239919
-0.0220079
-0.0200238
-0.0179482
-0.015903
-0.0137969
-0.0117213
-0.0095845
-0.0074784
-0.0053418
-0.0032355
-0.0011294
0.0010073
0.0030524
0.0051586
0.0071731
0.0092183
0.0111718
0.0131559
0.0150484
0.0211532
0.0423064
0.0423064
0
0.0423369
0.0423064
0.0423064
1
0.042337
0.0423064
0.0423064
1
0.0423369
0.0423064
0.0423064
1
0.0423369
0.0423064
0.0423064
0
0.0423369
0.0423064
0.0423064
5
0.042337
0.0423064
0.0423064
1
0.0423369
0.0423064
0.0423064
0
0.0423369
0.0338513
0.0233204
0.0232899
0.0232898
0.0232899
0.0232899
3
0.0187723
0.0051891
0.0042734
0.0042428
0.0042734
0.0042734
0
-0.0112634
-0.0415128
-0.0423064
-0.0423369
-0.0423064
-0.0423064
1
-0.042337
-0.0423064
-0.0423064
1
-0.0423369
-0.0423064
-0.0423064
0
-0.0423369
-0.0423064
-0.0423064
0

shape_id 8
num_samples 375
0
0
8
0.0087292
0.0279335
0.002971
-0.0418083
-0.0666483
-0.0668321
-0.0589911
-0.0472909
-0.0327728
-0.016754
-0.0004594
0.0152532
0.0295568
0.0420533
0.0522834
0.0602162
0.0657601
0.0689454
0.0700175
0.0689761
0.0661582
0.0617171
0.0558669
0.0488836
0.0409507
0.032344
0.0232167
0.0138442
0.0043186
-0.0050537
-0.0142118
-0.0230022
-0.031272
-0.0389292
-0.045882
-0.0520383
-0.0573372
-0.0617477
-0.0652393
-0.0678122
-0.0694049
-0.0701093
-0.0698643
-0.0687923
-0.0668627
-0.0641061
-0.0606451
-0.0565101
-0.0517321
-0.0464333
-0.040675
-0.0344881
-0.0279641
-0.0204294
-0.0124353
-0.0054213
0.0014396
0.0081779
0.0146405
0.0209195
0.0268308
0.032436
0.0376428
0.0424515
0.0468008
0.0507213
0.0541211
0.0570615
0.0594812
0.0614413
0.0628197
0.0637692
0.0641674
0.0641367
0.063616
0.0626666
0.0612576
0.0594199
0.0572146
0.0546418
0.0517321
0.0484854
0.0449937
0.0412264
0.0372446
0.0330485
0.0286992
0.0242274
0.0196637
0.0149774
0.0102913
0.0055745
0.0008882
-0.0037673
-0.0083617
-0.0128641
-0.0172134
-0.0215014
-0.0255444
-0.029465
-0.033171
-0.0366626
-0.0399094
-0.0429416
-0.0457288
-0.0482097
-0.0504457
-0.0523752
-0.0540599
-0.0554075
-0.0565408
-0.0573065
-0.0577966
-0.0579803
-0.0579497
-0.0575822
-0.0569696
-0.0560507
-0.0549174
-0.0535086
-0.0518239
-0.0499862
-0.0478729
-0.0455756
-0.0430641
-0.0403994
-0.0375816
-0.0346105
-0.0314558
-0.0282398
-0.0249012
-0.0214708
-0.0180097
-0.0144262
-0.0108426
-0.0071978
-0.0036142
0
0.0036142
0.0071978
0.0106588
0.0141199
0.0175197
0.0207663
0.0239517
0.0270147
0.0299549
0.0327729
0.0354375
0.0379491
0.0403075
0.0424822
0.0445036
0.0463414
0.0479953
0.0494349
0.0507214
0.0517933
0.0526509
0.0533554
0.0538148
0.0540905
0.0541517
0.0540905
0.0537842
0.0532635
0.0526203
0.051732
0.0506907
0.0494962
0.0480872
0.0465864
0.0448712
0.0430335
0.0410426
0.0389599
0.0366933
0.0343961
0.0319152
0.0293731
0.0267389
0.0240436
0.0212564
0.0184079
0.0155288
0.0126191
0.0096787
0.0066771
0.0037367
0.0007351
-0.0022359
-0.0052069
-0.0081166
-0.0109958
-0.0138136
-0.0166314
-0.0193574
-0.0220221
-0.024595
-0.0270758
-0.0294649
-0.0317928
-0.0339979
-0.0360808
-0.0380409
-0.0399094
-0.0416245
-0.0432479
-0.0446875
-0.0460351
-0.0471989
-0.0482711
-0.0491898
-0.049925
-0.0505681
-0.050997
-0.0513339
-0.0515177
-0.0515176
-0.0513952
-0.0511807
-0.0507213
-0.0502006
-0.0495268
-0.0486998
-0.0477503
-0.0466477
-0.0454532
-0.0441361
-0.0426965
-0.0411345
-0.0394806
-0.0377347
-0.0358663
-0.0339061
-0.0318846
-0.0297712
-0.0275965
-0.0253301
-0.0230328
-0.0206745
-0.0182854
-0.0158044
-0.0133236
-0.0108119
-0.0083004
-0.0057276
-0.0031854
-0.0006126
0.001899
0.0044718
0.0071671
0.0102607
0.0128335
